"2018081402-05_DOCQuality - RawData"
"Wavelength nm.","Abs."
200.00,0.673
201.00,0.739
202.00,0.724
203.00,0.684
204.00,0.691
205.00,0.699
206.00,0.739
207.00,0.666
208.00,0.699
209.00,0.665
210.00,0.691
211.00,0.644
212.00,0.640
213.00,0.813
214.00,0.662
215.00,0.748
216.00,0.665
217.00,0.775
218.00,0.742
219.00,0.733
220.00,0.697
221.00,0.683
222.00,0.741
223.00,0.821
224.00,0.741
225.00,0.807
226.00,0.747
227.00,0.775
228.00,0.796
229.00,0.798
230.00,0.775
231.00,0.815
232.00,0.816
233.00,0.885
234.00,0.787
235.00,0.885
236.00,0.887
237.00,0.964
238.00,0.953
239.00,0.982
240.00,0.935
241.00,0.982
242.00,0.913
243.00,1.027
244.00,1.038
245.00,1.038
246.00,1.038
247.00,0.986
248.00,1.005
249.00,1.083
250.00,1.072
251.00,1.151
252.00,1.104
253.00,1.049
254.00,1.122
255.00,1.038
256.00,1.162
257.00,1.192
258.00,1.070
259.00,1.036
260.00,1.090
261.00,1.080
262.00,1.118
263.00,1.233
264.00,1.235
265.00,1.397
266.00,1.542
267.00,1.778
268.00,1.892
269.00,2.150
270.00,2.303
271.00,2.535
272.00,2.664
273.00,2.791
274.00,2.914
275.00,3.014
276.00,3.141
277.00,3.325
278.00,3.325
279.00,3.436
280.00,3.524
281.00,3.612
282.00,3.524
283.00,3.524
284.00,3.436
285.00,3.612
286.00,3.436
287.00,3.374
288.00,3.263
289.00,3.039
290.00,2.856
291.00,2.661
292.00,2.462
293.00,2.282
294.00,2.110
295.00,1.947
296.00,1.796
297.00,1.655
298.00,1.526
299.00,1.405
300.00,1.293
301.00,1.190
302.00,1.093
303.00,1.005
304.00,0.924
305.00,0.852
306.00,0.785
307.00,0.720
308.00,0.662
309.00,0.608
310.00,0.559
311.00,0.514
312.00,0.473
313.00,0.435
314.00,0.403
315.00,0.371
316.00,0.342
317.00,0.315
318.00,0.290
319.00,0.267
320.00,0.245
321.00,0.225
322.00,0.207
323.00,0.189
324.00,0.174
325.00,0.160
326.00,0.148
327.00,0.136
328.00,0.125
329.00,0.114
330.00,0.105
331.00,0.096
332.00,0.089
333.00,0.081
334.00,0.074
335.00,0.068
336.00,0.063
337.00,0.058
338.00,0.053
339.00,0.049
340.00,0.045
341.00,0.041
342.00,0.038
343.00,0.035
344.00,0.032
345.00,0.029
346.00,0.027
347.00,0.025
348.00,0.023
349.00,0.021
350.00,0.019
351.00,0.018
352.00,0.016
353.00,0.015
354.00,0.013
355.00,0.012
356.00,0.011
357.00,0.010
358.00,0.009
359.00,0.008
360.00,0.007
361.00,0.006
362.00,0.006
363.00,0.005
364.00,0.004
365.00,0.004
366.00,0.003
367.00,0.003
368.00,0.002
369.00,0.002
370.00,0.001
371.00,0.001
372.00,0.001
373.00,0.000
374.00,0.000
375.00,0.000
376.00,0.000
377.00,-0.000
378.00,-0.000
379.00,-0.000
380.00,-0.001
381.00,-0.001
382.00,-0.001
383.00,-0.002
384.00,-0.002
385.00,-0.004
386.00,-0.003
387.00,-0.003
388.00,-0.004
389.00,-0.004
390.00,-0.004
391.00,-0.005
392.00,-0.005
393.00,-0.005
394.00,-0.005
395.00,-0.005
396.00,-0.005
397.00,-0.006
398.00,-0.006
399.00,-0.006
400.00,-0.006
401.00,-0.006
402.00,-0.006
403.00,-0.006
404.00,-0.007
405.00,-0.007
406.00,-0.007
407.00,-0.007
408.00,-0.007
409.00,-0.007
410.00,-0.007
411.00,-0.007
412.00,-0.007
413.00,-0.007
414.00,-0.007
415.00,-0.007
416.00,-0.007
417.00,-0.007
418.00,-0.007
419.00,-0.007
420.00,-0.007
421.00,-0.007
422.00,-0.007
423.00,-0.007
424.00,-0.007
425.00,-0.007
426.00,-0.007
427.00,-0.008
428.00,-0.008
429.00,-0.008
430.00,-0.008
431.00,-0.008
432.00,-0.008
433.00,-0.008
434.00,-0.008
435.00,-0.008
436.00,-0.008
437.00,-0.008
438.00,-0.008
439.00,-0.008
440.00,-0.008
441.00,-0.008
442.00,-0.008
443.00,-0.008
444.00,-0.008
445.00,-0.008
446.00,-0.008
447.00,-0.008
448.00,-0.008
449.00,-0.008
450.00,-0.008
451.00,-0.008
452.00,-0.008
453.00,-0.009
454.00,-0.009
455.00,-0.009
456.00,-0.009
457.00,-0.009
458.00,-0.009
459.00,-0.009
460.00,-0.009
461.00,-0.009
462.00,-0.009
463.00,-0.009
464.00,-0.009
465.00,-0.009
466.00,-0.009
467.00,-0.009
468.00,-0.009
469.00,-0.009
470.00,-0.009
471.00,-0.009
472.00,-0.009
473.00,-0.009
474.00,-0.009
475.00,-0.009
476.00,-0.009
477.00,-0.010
478.00,-0.010
479.00,-0.010
480.00,-0.010
481.00,-0.010
482.00,-0.010
483.00,-0.010
484.00,-0.010
485.00,-0.010
486.00,-0.010
487.00,-0.010
488.00,-0.010
489.00,-0.010
490.00,-0.010
491.00,-0.010
492.00,-0.010
493.00,-0.010
494.00,-0.010
495.00,-0.010
496.00,-0.010
497.00,-0.010
498.00,-0.010
499.00,-0.010
500.00,-0.010
501.00,-0.010
502.00,-0.010
503.00,-0.010
504.00,-0.010
505.00,-0.010
506.00,-0.010
507.00,-0.010
508.00,-0.010
509.00,-0.010
510.00,-0.010
511.00,-0.010
512.00,-0.010
513.00,-0.010
514.00,-0.010
515.00,-0.010
516.00,-0.010
517.00,-0.010
518.00,-0.010
519.00,-0.010
520.00,-0.010
521.00,-0.010
522.00,-0.010
523.00,-0.010
524.00,-0.010
525.00,-0.010
526.00,-0.010
527.00,-0.010
528.00,-0.010
529.00,-0.010
530.00,-0.010
531.00,-0.010
532.00,-0.010
533.00,-0.010
534.00,-0.010
535.00,-0.010
536.00,-0.010
537.00,-0.010
538.00,-0.010
539.00,-0.010
540.00,-0.010
541.00,-0.010
542.00,-0.010
543.00,-0.010
544.00,-0.010
545.00,-0.010
546.00,-0.010
547.00,-0.010
548.00,-0.010
549.00,-0.010
550.00,-0.010
551.00,-0.010
552.00,-0.010
553.00,-0.010
554.00,-0.010
555.00,-0.010
556.00,-0.010
557.00,-0.010
558.00,-0.010
559.00,-0.010
560.00,-0.010
561.00,-0.010
562.00,-0.010
563.00,-0.011
564.00,-0.010
565.00,-0.010
566.00,-0.010
567.00,-0.010
568.00,-0.010
569.00,-0.010
570.00,-0.010
571.00,-0.010
572.00,-0.011
573.00,-0.011
574.00,-0.010
575.00,-0.010
576.00,-0.010
577.00,-0.010
578.00,-0.010
579.00,-0.010
580.00,-0.010
581.00,-0.010
582.00,-0.010
583.00,-0.010
584.00,-0.010
585.00,-0.010
586.00,-0.010
587.00,-0.010
588.00,-0.010
589.00,-0.010
590.00,-0.010
591.00,-0.010
592.00,-0.010
593.00,-0.010
594.00,-0.010
595.00,-0.010
596.00,-0.010
597.00,-0.010
598.00,-0.010
599.00,-0.010
600.00,-0.010
601.00,-0.010
602.00,-0.010
603.00,-0.010
604.00,-0.010
605.00,-0.010
606.00,-0.010
607.00,-0.010
608.00,-0.010
609.00,-0.010
610.00,-0.010
611.00,-0.010
612.00,-0.010
613.00,-0.010
614.00,-0.010
615.00,-0.010
616.00,-0.010
617.00,-0.010
618.00,-0.010
619.00,-0.010
620.00,-0.010
621.00,-0.010
622.00,-0.010
623.00,-0.009
624.00,-0.010
625.00,-0.010
626.00,-0.010
627.00,-0.010
628.00,-0.010
629.00,-0.010
630.00,-0.010
631.00,-0.010
632.00,-0.010
633.00,-0.010
634.00,-0.010
635.00,-0.010
636.00,-0.010
637.00,-0.010
638.00,-0.010
639.00,-0.010
640.00,-0.010
641.00,-0.010
642.00,-0.010
643.00,-0.010
644.00,-0.010
645.00,-0.010
646.00,-0.010
647.00,-0.010
648.00,-0.010
649.00,-0.009
650.00,-0.009
651.00,-0.009
652.00,-0.009
653.00,-0.009
654.00,-0.009
655.00,-0.009
656.00,-0.009
657.00,-0.009
658.00,-0.009
659.00,-0.009
660.00,-0.009
661.00,-0.009
662.00,-0.009
663.00,-0.009
664.00,-0.009
665.00,-0.009
666.00,-0.009
667.00,-0.009
668.00,-0.009
669.00,-0.009
670.00,-0.009
671.00,-0.009
672.00,-0.009
673.00,-0.009
674.00,-0.009
675.00,-0.009
676.00,-0.009
677.00,-0.009
678.00,-0.009
679.00,-0.009
680.00,-0.009
681.00,-0.009
682.00,-0.009
683.00,-0.009
684.00,-0.009
685.00,-0.009
686.00,-0.009
687.00,-0.009
688.00,-0.009
689.00,-0.009
690.00,-0.009
691.00,-0.009
692.00,-0.009
693.00,-0.009
694.00,-0.009
695.00,-0.009
696.00,-0.009
697.00,-0.009
698.00,-0.009
699.00,-0.009
700.00,-0.009
701.00,-0.008
702.00,-0.008
703.00,-0.008
704.00,-0.008
705.00,-0.008
706.00,-0.008
707.00,-0.008
708.00,-0.008
709.00,-0.008
710.00,-0.008
711.00,-0.008
712.00,-0.008
713.00,-0.007
714.00,-0.007
715.00,-0.007
716.00,-0.007
717.00,-0.007
718.00,-0.007
719.00,-0.006
720.00,-0.006
721.00,-0.006
722.00,-0.006
723.00,-0.005
724.00,-0.005
725.00,-0.005
726.00,-0.005
727.00,-0.005
728.00,-0.004
729.00,-0.004
730.00,-0.003
731.00,-0.003
732.00,-0.002
733.00,-0.002
734.00,-0.002
735.00,-0.001
736.00,-0.001
737.00,-0.001
738.00,-0.000
739.00,-0.000
740.00,0.000
741.00,0.000
742.00,0.000
743.00,0.000
744.00,0.000
745.00,0.000
746.00,0.000
747.00,0.000
748.00,0.000
749.00,0.000
750.00,0.000
751.00,0.000
752.00,0.000
753.00,0.000
754.00,0.000
755.00,0.000
756.00,0.000
757.00,0.000
758.00,0.000
759.00,0.000
760.00,0.000
761.00,0.000
762.00,0.000
763.00,0.000
764.00,0.000
765.00,0.000
766.00,0.000
767.00,0.000
768.00,0.000
769.00,0.000
770.00,0.000
771.00,0.000
772.00,0.000
773.00,0.000
774.00,0.000
775.00,0.000
776.00,0.000
777.00,0.000
778.00,0.000
779.00,0.000
780.00,0.000
781.00,-0.000
782.00,-0.000
783.00,-0.000
784.00,-0.000
785.00,-0.000
786.00,-0.000
787.00,-0.000
788.00,-0.001
789.00,-0.001
790.00,-0.001
791.00,-0.001
792.00,-0.001
793.00,-0.001
794.00,-0.001
795.00,-0.001
796.00,-0.001
797.00,-0.001
798.00,-0.001
799.00,-0.001
800.00,-0.001
